  **  PHYSICAL PARAMETERS  **


   RADIUS      n(Htot)     TEMP        A_UV EFF    RAD. EFF    C K(PH)     C K(IP)     C K(AP)     CO K(PH)    CO K(IP)    CO K(AP)    DELTA_AUV   
   1.000E+014  1.503E+007  8.589E+002  3.737E+000  6.138E-003  0.000E+000  0.000E+000  0.000E+000  0.000E+000  0.000E+000  0.000E+000  5.605E+000
   1.072E+014  1.309E+007  8.184E+002  3.487E+000  8.243E-003  1.633E-012  0.000E+000  0.000E+000  2.315E-015  0.000E+000  0.000E+000  5.855E+000
   1.148E+014  1.140E+007  7.798E+002  3.255E+000  1.088E-002  2.241E-012  0.000E+000  0.000E+000  3.279E-015  0.000E+000  0.000E+000  6.087E+000
   1.230E+014  9.929E+006  7.430E+002  3.037E+000  1.412E-002  3.037E-012  0.000E+000  0.000E+000  4.603E-015  0.000E+000  0.000E+000  6.305E+000
   1.318E+014  8.647E+006  7.079E+002  2.835E+000  1.805E-002  3.982E-012  0.000E+000  0.000E+000  6.258E-015  0.000E+000  0.000E+000  6.507E+000
   1.413E+014  7.532E+006  6.745E+002  2.645E+000  2.274E-002  5.171E-012  0.000E+000  0.000E+000  8.451E-015  0.000E+000  0.000E+000  6.697E+000
   1.514E+014  6.560E+006  6.426E+002  2.469E+000  2.828E-002  6.678E-012  0.000E+000  0.000E+000  1.139E-014  0.000E+000  0.000E+000  6.873E+000
   1.622E+014  5.713E+006  6.123E+002  2.304E+000  3.471E-002  8.479E-012  0.000E+000  0.000E+000  1.513E-014  0.000E+000  0.000E+000  7.038E+000
   1.738E+014  4.976E+006  5.834E+002  2.150E+000  4.211E-002  1.061E-011  0.000E+000  0.000E+000  1.984E-014  0.000E+000  0.000E+000  7.192E+000
   1.862E+014  4.334E+006  5.559E+002  2.007E+000  5.052E-002  1.302E-011  0.000E+000  0.000E+000  2.551E-014  0.000E+000  0.000E+000  7.335E+000
   1.995E+014  3.775E+006  5.296E+002  1.873E+000  5.998E-002  1.548E-011  0.000E+000  0.000E+000  3.169E-014  0.000E+000  0.000E+000  7.469E+000
   2.138E+014  3.288E+006  5.046E+002  1.748E+000  7.051E-002  1.902E-011  0.000E+000  0.000E+000  4.118E-014  0.000E+000  0.000E+000  7.594E+000
   2.291E+014  2.863E+006  4.808E+002  1.631E+000  8.212E-002  2.242E-011  0.000E+000  0.000E+000  5.101E-014  0.000E+000  0.000E+000  7.711E+000
   2.455E+014  2.494E+006  4.581E+002  1.522E+000  9.481E-002  2.597E-011  0.000E+000  0.000E+000  6.195E-014  0.000E+000  0.000E+000  7.820E+000
   2.630E+014  2.172E+006  4.365E+002  1.421E+000  1.086E-001  3.013E-011  0.000E+000  0.000E+000  7.571E-014  0.000E+000  0.000E+000  7.921E+000
   2.818E+014  1.892E+006  4.159E+002  1.326E+000  1.233E-001  3.482E-011  0.000E+000  0.000E+000  9.243E-014  0.000E+000  0.000E+000  8.016E+000
   3.020E+014  1.648E+006  3.962E+002  1.237E+000  1.391E-001  3.984E-011  0.000E+000  0.000E+000  1.117E-013  0.000E+000  0.000E+000  8.105E+000
   3.236E+014  1.435E+006  3.775E+002  1.155E+000  1.558E-001  4.523E-011  0.000E+000  0.000E+000  1.342E-013  0.000E+000  0.000E+000  8.187E+000
   3.467E+014  1.250E+006  3.597E+002  1.078E+000  1.734E-001  5.197E-011  0.000E+000  0.000E+000  1.648E-013  0.000E+000  0.000E+000  8.264E+000
   3.715E+014  1.089E+006  3.427E+002  1.006E+000  1.917E-001  5.736E-011  0.000E+000  0.000E+000  1.915E-013  0.000E+000  0.000E+000  8.336E+000
   3.981E+014  9.482E+005  3.266E+002  9.386E-001  2.108E-001  6.387E-011  0.000E+000  0.000E+000  2.263E-013  0.000E+000  0.000E+000  8.403E+000
   4.266E+014  8.258E+005  3.111E+002  8.760E-001  2.306E-001  6.997E-011  0.000E+000  0.000E+000  2.618E-013  0.000E+000  0.000E+000  8.466E+000
   4.571E+014  7.193E+005  2.965E+002  8.175E-001  2.509E-001  7.684E-011  0.000E+000  0.000E+000  3.050E-013  0.000E+000  0.000E+000  8.524E+000
   4.898E+014  6.264E+005  2.825E+002  7.630E-001  2.717E-001  8.510E-011  0.000E+000  0.000E+000  3.622E-013  0.000E+000  0.000E+000  8.579E+000
   5.248E+014  5.456E+005  2.691E+002  7.120E-001  2.929E-001  9.218E-011  0.000E+000  0.000E+000  4.161E-013  0.000E+000  0.000E+000  8.630E+000
   5.623E+014  4.752E+005  2.564E+002  6.645E-001  3.145E-001  9.896E-011  0.000E+000  0.000E+000  4.722E-013  0.000E+000  0.000E+000  8.677E+000
   6.026E+014  4.139E+005  2.443E+002  6.202E-001  3.362E-001  1.070E-010  0.000E+000  0.000E+000  5.450E-013  0.000E+000  0.000E+000  8.722E+000
   6.457E+014  3.605E+005  2.328E+002  5.788E-001  3.582E-001  1.146E-010  0.000E+000  0.000E+000  6.204E-013  0.000E+000  0.000E+000  8.763E+000
   6.918E+014  3.140E+005  2.218E+002  5.401E-001  3.802E-001  1.222E-010  0.000E+000  0.000E+000  7.031E-013  0.000E+000  0.000E+000  8.802E+000
   7.413E+014  2.735E+005  2.113E+002  5.041E-001  4.022E-001  1.302E-010  0.000E+000  0.000E+000  7.989E-013  0.000E+000  0.000E+000  8.838E+000
   7.943E+014  2.382E+005  2.014E+002  4.704E-001  4.242E-001  1.377E-010  0.000E+000  0.000E+000  8.971E-013  0.000E+000  0.000E+000  8.872E+000
   8.511E+014  2.074E+005  1.919E+002  4.390E-001  4.460E-001  1.459E-010  0.000E+000  0.000E+000  1.015E-012  0.000E+000  0.000E+000  8.903E+000
   9.120E+014  1.807E+005  1.828E+002  4.097E-001  4.677E-001  1.539E-010  0.000E+000  0.000E+000  1.144E-012  0.000E+000  0.000E+000  8.932E+000
   9.772E+014  1.574E+005  1.742E+002  3.824E-001  4.891E-001  1.620E-010  0.000E+000  0.000E+000  1.289E-012  0.000E+000  0.000E+000  8.960E+000
   1.047E+015  1.371E+005  1.659E+002  3.569E-001  5.101E-001  1.695E-010  0.000E+000  0.000E+000  1.436E-012  0.000E+000  0.000E+000  8.985E+000
   1.122E+015  1.194E+005  1.581E+002  3.330E-001  5.309E-001  1.772E-010  0.000E+000  0.000E+000  1.605E-012  0.000E+000  0.000E+000  9.009E+000
   1.202E+015  1.040E+005  1.506E+002  3.108E-001  5.512E-001  1.834E-010  0.000E+000  0.000E+000  1.752E-012  0.000E+000  0.000E+000  9.031E+000
   1.288E+015  9.055E+004  1.435E+002  2.901E-001  5.711E-001  1.910E-010  0.000E+000  0.000E+000  1.953E-012  0.000E+000  0.000E+000  9.052E+000
   1.380E+015  7.887E+004  1.368E+002  2.707E-001  5.905E-001  1.984E-010  0.000E+000  0.000E+000  2.173E-012  0.000E+000  0.000E+000  9.071E+000
   1.479E+015  6.869E+004  1.303E+002  2.526E-001  6.094E-001  2.053E-010  0.000E+000  0.000E+000  2.400E-012  0.000E+000  0.000E+000  9.089E+000
   1.585E+015  5.983E+004  1.242E+002  2.358E-001  6.278E-001  2.116E-010  0.000E+000  0.000E+000  2.630E-012  0.000E+000  0.000E+000  9.106E+000
   1.698E+015  5.211E+004  1.183E+002  2.200E-001  6.456E-001  2.187E-010  0.000E+000  0.000E+000  2.921E-012  0.000E+000  0.000E+000  9.122E+000
   1.820E+015  4.538E+004  1.127E+002  2.054E-001  6.628E-001  2.251E-010  0.000E+000  0.000E+000  3.215E-012  0.000E+000  0.000E+000  9.137E+000
   1.950E+015  3.953E+004  1.074E+002  1.916E-001  6.795E-001  2.308E-010  0.000E+000  0.000E+000  3.508E-012  0.000E+000  0.000E+000  9.150E+000
   2.089E+015  3.443E+004  1.023E+002  1.789E-001  6.955E-001  2.366E-010  0.000E+000  0.000E+000  3.840E-012  0.000E+000  0.000E+000  9.163E+000
   2.239E+015  2.998E+004  9.749E+001  1.669E-001  7.110E-001  2.423E-010  0.000E+000  0.000E+000  4.201E-012  0.000E+000  0.000E+000  9.175E+000
   2.399E+015  2.611E+004  9.289E+001  1.558E-001  7.258E-001  2.478E-010  0.000E+000  0.000E+000  4.600E-012  0.000E+000  0.000E+000  9.186E+000
   2.570E+015  2.275E+004  8.850E+001  1.454E-001  7.401E-001  2.533E-010  0.000E+000  0.000E+000  5.041E-012  0.000E+000  0.000E+000  9.197E+000
   2.754E+015  1.981E+004  8.433E+001  1.357E-001  7.538E-001  2.583E-010  0.000E+000  0.000E+000  5.496E-012  0.000E+000  0.000E+000  9.206E+000
   2.951E+015  1.725E+004  8.035E+001  1.266E-001  7.669E-001  2.634E-010  0.000E+000  0.000E+000  6.016E-012  0.000E+000  0.000E+000  9.215E+000
   3.162E+015  1.503E+004  7.655E+001  1.182E-001  7.794E-001  2.677E-010  0.000E+000  0.000E+000  6.523E-012  0.000E+000  0.000E+000  9.224E+000
   3.388E+015  1.309E+004  7.294E+001  1.103E-001  7.913E-001  2.723E-010  0.000E+000  0.000E+000  7.123E-012  0.000E+000  0.000E+000  9.232E+000
   3.631E+015  1.140E+004  6.950E+001  1.029E-001  8.027E-001  2.766E-010  0.000E+000  0.000E+000  7.752E-012  0.000E+000  0.000E+000  9.239E+000
   3.890E+015  9.929E+003  6.622E+001  9.605E-002  8.136E-001  2.804E-010  0.000E+000  0.000E+000  8.385E-012  0.000E+000  0.000E+000  9.246E+000
   4.169E+015  8.647E+003  6.309E+001  8.964E-002  8.240E-001  2.842E-010  0.000E+000  0.000E+000  9.103E-012  0.000E+000  0.000E+000  9.252E+000
   4.467E+015  7.532E+003  6.011E+001  8.366E-002  8.338E-001  2.880E-010  0.000E+000  0.000E+000  9.908E-012  0.000E+000  0.000E+000  9.258E+000
   4.786E+015  6.560E+003  5.728E+001  7.807E-002  8.432E-001  2.915E-010  0.000E+000  0.000E+000  1.076E-011  0.000E+000  0.000E+000  9.264E+000
   5.129E+015  5.713E+003  5.457E+001  7.286E-002  8.521E-001  2.952E-010  0.000E+000  0.000E+000  1.180E-011  0.000E+000  0.000E+000  9.269E+000
   5.495E+015  4.976E+003  5.200E+001  6.800E-002  8.606E-001  2.981E-010  0.000E+000  0.000E+000  1.271E-011  0.000E+000  0.000E+000  9.274E+000
   5.888E+015  4.334E+003  4.954E+001  6.346E-002  8.686E-001  3.009E-010  0.000E+000  0.000E+000  1.373E-011  0.000E+000  0.000E+000  9.278E+000
   6.310E+015  3.775E+003  4.720E+001  5.922E-002  8.762E-001  3.038E-010  0.000E+000  0.000E+000  1.492E-011  0.000E+000  0.000E+000  9.283E+000
   6.761E+015  3.288E+003  4.497E+001  5.527E-002  8.835E-001  3.066E-010  0.000E+000  0.000E+000  1.626E-011  0.000E+000  0.000E+000  9.287E+000
   7.244E+015  2.863E+003  4.285E+001  5.158E-002  8.903E-001  3.092E-010  0.000E+000  0.000E+000  1.767E-011  0.000E+000  0.000E+000  9.290E+000
   7.762E+015  2.494E+003  4.083E+001  4.814E-002  8.968E-001  3.115E-010  0.000E+000  0.000E+000  1.908E-011  0.000E+000  0.000E+000  9.294E+000
   8.318E+015  2.172E+003  3.890E+001  4.493E-002  9.029E-001  3.139E-010  0.000E+000  0.000E+000  2.082E-011  0.000E+000  0.000E+000  9.297E+000
   8.913E+015  1.892E+003  3.707E+001  4.193E-002  9.087E-001  3.159E-010  0.000E+000  0.000E+000  2.253E-011  0.000E+000  0.000E+000  9.300E+000
   9.550E+015  1.648E+003  3.532E+001  3.913E-002  9.142E-001  3.181E-010  0.000E+000  0.000E+000  2.473E-011  0.000E+000  0.000E+000  9.303E+000
   1.023E+016  1.435E+003  3.365E+001  3.652E-002  9.194E-001  3.199E-010  0.000E+000  0.000E+000  2.677E-011  0.000E+000  0.000E+000  9.305E+000
   1.096E+016  1.250E+003  3.206E+001  3.408E-002  9.243E-001  3.218E-010  0.000E+000  0.000E+000  2.935E-011  0.000E+000  0.000E+000  9.308E+000
   1.175E+016  1.089E+003  3.055E+001  3.181E-002  9.289E-001  3.235E-010  0.000E+000  0.000E+000  3.204E-011  0.000E+000  0.000E+000  9.310E+000
   1.259E+016  9.482E+002  2.910E+001  2.968E-002  9.333E-001  3.251E-010  0.000E+000  0.000E+000  3.511E-011  0.000E+000  0.000E+000  9.312E+000
   1.349E+016  8.258E+002  2.773E+001  2.770E-002  9.374E-001  3.267E-010  0.000E+000  0.000E+000  3.860E-011  0.000E+000  0.000E+000  9.314E+000
   1.445E+016  7.193E+002  2.642E+001  2.585E-002  9.413E-001  3.281E-010  0.000E+000  0.000E+000  4.259E-011  0.000E+000  0.000E+000  9.316E+000
   1.549E+016  6.264E+002  2.517E+001  2.413E-002  9.449E-001  3.295E-010  0.000E+000  0.000E+000  4.715E-011  0.000E+000  0.000E+000  9.318E+000
   1.660E+016  5.456E+002  2.399E+001  2.252E-002  9.483E-001  3.307E-010  0.000E+000  0.000E+000  5.212E-011  0.000E+000  0.000E+000  9.319E+000
   1.778E+016  4.752E+002  2.285E+001  2.101E-002  9.516E-001  3.319E-010  0.000E+000  0.000E+000  5.804E-011  0.000E+000  0.000E+000  9.321E+000
   1.905E+016  4.139E+002  2.178E+001  1.961E-002  9.546E-001  3.331E-010  0.000E+000  0.000E+000  6.502E-011  0.000E+000  0.000E+000  9.322E+000
   2.042E+016  3.605E+002  2.075E+001  1.830E-002  9.575E-001  3.342E-010  0.000E+000  0.000E+000  7.309E-011  0.000E+000  0.000E+000  9.324E+000
   2.188E+016  3.140E+002  1.977E+001  1.708E-002  9.602E-001  3.351E-010  0.000E+000  0.000E+000  8.223E-011  0.000E+000  0.000E+000  9.325E+000
   2.344E+016  2.735E+002  1.884E+001  1.594E-002  9.627E-001  3.361E-010  0.000E+000  0.000E+000  9.293E-011  0.000E+000  0.000E+000  9.326E+000
   2.512E+016  2.382E+002  1.795E+001  1.488E-002  9.651E-001  3.370E-010  0.000E+000  0.000E+000  1.057E-010  0.000E+000  0.000E+000  9.327E+000
   2.692E+016  2.074E+002  1.710E+001  1.388E-002  9.673E-001  3.378E-010  0.000E+000  0.000E+000  1.206E-010  0.000E+000  0.000E+000  9.328E+000
   2.884E+016  1.807E+002  1.629E+001  1.296E-002  9.694E-001  3.386E-010  0.000E+000  0.000E+000  1.366E-010  0.000E+000  0.000E+000  9.329E+000
   3.090E+016  1.574E+002  1.552E+001  1.209E-002  9.714E-001  3.393E-010  0.000E+000  0.000E+000  1.523E-010  0.000E+000  0.000E+000  9.330E+000
   3.311E+016  1.371E+002  1.479E+001  1.128E-002  9.732E-001  3.400E-010  0.000E+000  0.000E+000  1.693E-010  0.000E+000  0.000E+000  9.331E+000
   3.548E+016  1.194E+002  1.409E+001  1.053E-002  9.749E-001  3.407E-010  0.000E+000  0.000E+000  1.869E-010  0.000E+000  0.000E+000  9.331E+000
   3.802E+016  1.040E+002  1.343E+001  9.829E-003  9.766E-001  3.413E-010  0.000E+000  0.000E+000  2.001E-010  0.000E+000  0.000E+000  9.332E+000
   4.074E+016  9.055E+001  1.279E+001  9.173E-003  9.781E-001  3.418E-010  0.000E+000  0.000E+000  2.112E-010  0.000E+000  0.000E+000  9.333E+000
   4.365E+016  7.887E+001  1.219E+001  8.560E-003  9.795E-001  3.424E-010  0.000E+000  0.000E+000  2.196E-010  0.000E+000  0.000E+000  9.333E+000
   4.677E+016  6.869E+001  1.161E+001  7.989E-003  9.808E-001  3.428E-010  0.000E+000  0.000E+000  2.255E-010  0.000E+000  0.000E+000  9.334E+000
   5.012E+016  5.983E+001  1.107E+001  7.456E-003  9.821E-001  3.433E-010  0.000E+000  0.000E+000  2.297E-010  0.000E+000  0.000E+000  9.334E+000
   5.370E+016  5.211E+001  1.054E+001  6.958E-003  9.832E-001  3.438E-010  0.000E+000  0.000E+000  2.320E-010  0.000E+000  0.000E+000  9.335E+000
   5.754E+016  4.538E+001  1.005E+001  6.494E-003  9.843E-001  3.442E-010  0.000E+000  0.000E+000  2.335E-010  0.000E+000  0.000E+000  9.335E+000
   6.166E+016  3.953E+001  1.000E+001  6.060E-003  9.854E-001  3.446E-010  0.000E+000  0.000E+000  2.345E-010  0.000E+000  0.000E+000  9.336E+000
   6.607E+016  3.443E+001  1.000E+001  5.656E-003  9.863E-001  3.449E-010  0.000E+000  0.000E+000  2.351E-010  0.000E+000  0.000E+000  9.336E+000
   7.079E+016  2.998E+001  1.000E+001  5.278E-003  9.872E-001  3.453E-010  0.000E+000  0.000E+000  2.356E-010  0.000E+000  0.000E+000  9.337E+000
   7.586E+016  2.611E+001  1.000E+001  4.926E-003  9.881E-001  3.455E-010  0.000E+000  0.000E+000  2.359E-010  0.000E+000  0.000E+000  9.337E+000
   8.128E+016  2.275E+001  1.000E+001  4.597E-003  9.888E-001  3.458E-010  0.000E+000  0.000E+000  2.362E-010  0.000E+000  0.000E+000  9.337E+000
   8.710E+016  1.981E+001  1.000E+001  4.290E-003  9.896E-001  3.461E-010  0.000E+000  0.000E+000  2.364E-010  0.000E+000  0.000E+000  9.338E+000
   9.333E+016  1.725E+001  1.000E+001  4.004E-003  9.903E-001  3.464E-010  0.000E+000  0.000E+000  2.366E-010  0.000E+000  0.000E+000  9.338E+000
   1.000E+017  1.503E+001  1.000E+001  3.737E-003  9.909E-001  3.466E-010  0.000E+000  0.000E+000  2.368E-010  0.000E+000  0.000E+000  9.338E+000
   1.072E+017  1.309E+001  1.000E+001  3.487E-003  9.915E-001  3.468E-010  0.000E+000  0.000E+000  2.370E-010  0.000E+000  0.000E+000  9.338E+000
   1.148E+017  1.140E+001  1.000E+001  3.255E-003  9.921E-001  3.471E-010  0.000E+000  0.000E+000  2.372E-010  0.000E+000  0.000E+000  9.339E+000
   1.230E+017  9.929E+000  1.000E+001  3.037E-003  9.926E-001  3.472E-010  0.000E+000  0.000E+000  2.373E-010  0.000E+000  0.000E+000  9.339E+000
   1.318E+017  8.647E+000  1.000E+001  2.835E-003  9.931E-001  3.474E-010  0.000E+000  0.000E+000  2.375E-010  0.000E+000  0.000E+000  9.339E+000
   1.413E+017  7.532E+000  1.000E+001  2.645E-003  9.935E-001  3.476E-010  0.000E+000  0.000E+000  2.376E-010  0.000E+000  0.000E+000  9.339E+000
   1.514E+017  6.560E+000  1.000E+001  2.469E-003  9.940E-001  3.478E-010  0.000E+000  0.000E+000  2.378E-010  0.000E+000  0.000E+000  9.339E+000
   1.622E+017  5.713E+000  1.000E+001  2.304E-003  9.944E-001  3.479E-010  0.000E+000  0.000E+000  2.379E-010  0.000E+000  0.000E+000  9.340E+000
   1.738E+017  4.976E+000  1.000E+001  2.150E-003  9.947E-001  3.480E-010  0.000E+000  0.000E+000  2.380E-010  0.000E+000  0.000E+000  9.340E+000
   1.862E+017  4.334E+000  1.000E+001  2.007E-003  9.951E-001  3.482E-010  0.000E+000  0.000E+000  2.381E-010  0.000E+000  0.000E+000  9.340E+000
   1.995E+017  3.775E+000  1.000E+001  1.873E-003  9.954E-001  3.483E-010  0.000E+000  0.000E+000  2.382E-010  0.000E+000  0.000E+000  9.340E+000
   2.138E+017  3.288E+000  1.000E+001  1.748E-003  9.957E-001  3.484E-010  0.000E+000  0.000E+000  2.383E-010  0.000E+000  0.000E+000  9.340E+000
   2.291E+017  2.863E+000  1.000E+001  1.631E-003  9.960E-001  3.485E-010  0.000E+000  0.000E+000  2.384E-010  0.000E+000  0.000E+000  9.340E+000
   2.455E+017  2.494E+000  1.000E+001  1.522E-003  9.963E-001  3.486E-010  0.000E+000  0.000E+000  2.385E-010  0.000E+000  0.000E+000  9.340E+000
   2.630E+017  2.172E+000  1.000E+001  1.421E-003  9.965E-001  3.487E-010  0.000E+000  0.000E+000  2.386E-010  0.000E+000  0.000E+000  9.341E+000
   2.818E+017  1.892E+000  1.000E+001  1.326E-003  9.967E-001  3.488E-010  0.000E+000  0.000E+000  2.387E-010  0.000E+000  0.000E+000  9.341E+000
   3.020E+017  1.648E+000  1.000E+001  1.237E-003  9.970E-001  3.489E-010  0.000E+000  0.000E+000  2.388E-010  0.000E+000  0.000E+000  9.341E+000
   3.236E+017  1.435E+000  1.000E+001  1.155E-003  9.972E-001  3.489E-010  0.000E+000  0.000E+000  2.388E-010  0.000E+000  0.000E+000  9.341E+000
   3.467E+017  1.250E+000  1.000E+001  1.078E-003  9.974E-001  3.490E-010  0.000E+000  0.000E+000  2.389E-010  0.000E+000  0.000E+000  9.341E+000
   3.715E+017  1.089E+000  1.000E+001  1.006E-003  9.975E-001  3.491E-010  0.000E+000  0.000E+000  2.390E-010  0.000E+000  0.000E+000  9.341E+000
   3.981E+017  9.482E-001  1.000E+001  9.386E-004  9.977E-001  3.491E-010  0.000E+000  0.000E+000  2.390E-010  0.000E+000  0.000E+000  9.341E+000
   4.266E+017  8.258E-001  1.000E+001  8.760E-004  9.978E-001  3.492E-010  0.000E+000  0.000E+000  2.391E-010  0.000E+000  0.000E+000  9.341E+000
   4.571E+017  7.193E-001  1.000E+001  8.175E-004  9.980E-001  3.493E-010  0.000E+000  0.000E+000  2.391E-010  0.000E+000  0.000E+000  9.341E+000
   4.898E+017  6.264E-001  1.000E+001  7.630E-004  9.981E-001  3.493E-010  0.000E+000  0.000E+000  2.392E-010  0.000E+000  0.000E+000  9.341E+000
   5.248E+017  5.456E-001  1.000E+001  7.120E-004  9.982E-001  3.493E-010  0.000E+000  0.000E+000  2.392E-010  0.000E+000  0.000E+000  9.341E+000
   5.623E+017  4.752E-001  1.000E+001  6.645E-004  9.984E-001  3.494E-010  0.000E+000  0.000E+000  2.393E-010  0.000E+000  0.000E+000  9.341E+000
   6.026E+017  4.139E-001  1.000E+001  6.202E-004  9.985E-001  3.494E-010  0.000E+000  0.000E+000  2.393E-010  0.000E+000  0.000E+000  9.341E+000
   6.457E+017  3.605E-001  1.000E+001  5.788E-004  9.986E-001  3.495E-010  0.000E+000  0.000E+000  2.394E-010  0.000E+000  0.000E+000  9.341E+000
   6.918E+017  3.140E-001  1.000E+001  5.401E-004  9.987E-001  3.495E-010  0.000E+000  0.000E+000  2.394E-010  0.000E+000  0.000E+000  9.341E+000
   7.413E+017  2.735E-001  1.000E+001  5.041E-004  9.988E-001  3.495E-010  0.000E+000  0.000E+000  2.394E-010  0.000E+000  0.000E+000  9.341E+000
   7.943E+017  2.382E-001  1.000E+001  4.704E-004  9.988E-001  3.496E-010  0.000E+000  0.000E+000  2.395E-010  0.000E+000  0.000E+000  9.341E+000
   8.511E+017  2.074E-001  1.000E+001  4.390E-004  9.989E-001  3.496E-010  0.000E+000  0.000E+000  2.395E-010  0.000E+000  0.000E+000  9.342E+000
   9.120E+017  1.807E-001  1.000E+001  4.097E-004  9.990E-001  3.496E-010  0.000E+000  0.000E+000  2.395E-010  0.000E+000  0.000E+000  9.342E+000
   9.772E+017  1.574E-001  1.000E+001  3.824E-004  9.991E-001  3.497E-010  0.000E+000  0.000E+000  2.395E-010  0.000E+000  0.000E+000  9.342E+000
   1.047E+018  1.371E-001  1.000E+001  3.569E-004  9.991E-001  3.497E-010  0.000E+000  0.000E+000  2.396E-010  0.000E+000  0.000E+000  9.342E+000
