  ** CALCULATED FRACTIONAL ABUNDANCES (/H2) ** 


   RADIUS      H           H+          H-          H2+         H3+         He          He+         HeH+        C-          C+          
   1.000E+014  0.000E+000  0.000E+000  0.000E+000  0.000E+000  0.000E+000  8.500E-002  0.000E+000  0.000E+000  0.000E+000  0.000E+000
   1.122E+014  1.004E-010  3.280E-016  8.899E-018  3.185E-018  2.964E-015  8.500E-002  3.591E-016  4.694E-020  5.028E-025  1.648E-015
   1.259E+014  1.812E-010  4.054E-016  1.147E-017  4.010E-018  3.693E-015  8.500E-002  4.500E-016  5.909E-020  1.052E-024  2.269E-015
   1.413E+014  2.630E-010  5.011E-016  1.480E-017  5.049E-018  4.599E-015  8.500E-002  5.639E-016  7.439E-020  1.589E-024  2.957E-015
   1.585E+014  3.496E-010  6.191E-016  1.910E-017  6.356E-018  5.726E-015  8.500E-002  7.063E-016  9.365E-020  2.143E-024  3.722E-015
   1.778E+014  4.430E-010  7.646E-016  2.466E-017  8.001E-018  7.127E-015  8.500E-002  8.846E-016  1.179E-019  2.773E-024  4.594E-015
   1.995E+014  5.476E-010  9.441E-016  3.183E-017  1.007E-017  8.868E-015  8.500E-002  1.108E-015  1.484E-019  3.536E-024  5.618E-015
   2.239E+014  6.696E-010  1.165E-015  4.109E-017  1.268E-017  1.103E-014  8.500E-002  1.387E-015  1.869E-019  4.488E-024  6.839E-015
   2.512E+014  8.156E-010  1.438E-015  5.303E-017  1.596E-017  1.372E-014  8.500E-002  1.736E-015  2.352E-019  5.691E-024  8.308E-015
   2.818E+014  9.914E-010  1.774E-015  6.841E-017  2.010E-017  1.705E-014  8.500E-002  2.172E-015  2.961E-019  7.220E-024  1.008E-014
   3.162E+014  1.203E-009  2.188E-015  8.820E-017  2.530E-017  2.118E-014  8.500E-002  2.717E-015  3.728E-019  9.170E-024  1.222E-014
   3.548E+014  1.455E-009  2.697E-015  1.136E-016  3.185E-017  2.631E-014  8.500E-002  3.398E-015  4.693E-019  1.166E-023  1.481E-014
   3.981E+014  1.754E-009  3.324E-015  1.461E-016  4.010E-017  3.267E-014  8.500E-002  4.249E-015  5.909E-019  1.486E-023  1.793E-014
   4.467E+014  2.107E-009  4.095E-015  1.877E-016  5.048E-017  4.055E-014  8.500E-002  5.311E-015  7.438E-019  1.897E-023  2.170E-014
   5.012E+014  2.520E-009  5.043E-015  2.408E-016  6.355E-017  5.032E-014  8.500E-002  6.637E-015  9.364E-019  2.426E-023  2.625E-014
   5.623E+014  3.003E-009  6.209E-015  3.083E-016  8.001E-017  6.241E-014  8.500E-002  8.292E-015  1.179E-018  3.109E-023  3.173E-014
   6.310E+014  3.565E-009  7.641E-015  3.940E-016  1.007E-016  7.737E-014  8.500E-002  1.036E-014  1.484E-018  3.993E-023  3.833E-014
   7.079E+014  4.219E-009  9.401E-015  5.024E-016  1.268E-016  9.588E-014  8.500E-002  1.293E-014  1.868E-018  5.140E-023  4.628E-014
   7.943E+014  4.976E-009  1.156E-014  6.395E-016  1.596E-016  1.188E-013  8.500E-002  1.614E-014  2.352E-018  6.632E-023  5.584E-014
   8.913E+014  5.853E-009  1.421E-014  8.124E-016  2.010E-016  1.471E-013  8.500E-002  2.014E-014  2.961E-018  8.579E-023  6.734E-014
   1.000E+015  6.863E-009  1.747E-014  1.030E-015  2.530E-016  1.820E-013  8.500E-002  2.513E-014  3.728E-018  1.112E-022  8.117E-014
   1.122E+015  8.024E-009  2.146E-014  1.304E-015  3.185E-016  2.252E-013  8.500E-002  3.133E-014  4.693E-018  1.446E-022  9.777E-014
   1.259E+015  9.355E-009  2.636E-014  1.649E-015  4.010E-016  2.785E-013  8.500E-002  3.906E-014  5.908E-018  1.884E-022  1.177E-013
   1.413E+015  1.088E-008  3.235E-014  2.081E-015  5.048E-016  3.442E-013  8.500E-002  4.867E-014  7.438E-018  2.462E-022  1.416E-013
   1.585E+015  1.261E-008  3.971E-014  2.625E-015  6.355E-016  4.252E-013  8.500E-002  6.063E-014  9.364E-018  3.224E-022  1.703E-013
   1.778E+015  1.459E-008  4.871E-014  3.307E-015  8.000E-016  5.250E-013  8.500E-002  7.549E-014  1.179E-017  4.233E-022  2.047E-013
   1.995E+015  1.684E-008  5.973E-014  4.165E-015  1.007E-015  6.479E-013  8.500E-002  9.396E-014  1.484E-017  5.569E-022  2.459E-013
   2.239E+015  1.939E-008  7.323E-014  5.242E-015  1.268E-015  7.992E-013  8.500E-002  1.169E-013  1.868E-017  7.342E-022  2.952E-013
   2.512E+015  2.229E-008  8.974E-014  6.595E-015  1.596E-015  9.852E-013  8.500E-002  1.454E-013  2.352E-017  9.700E-022  3.542E-013
   2.818E+015  2.557E-008  1.099E-013  8.295E-015  2.010E-015  1.214E-012  8.500E-002  1.807E-013  2.961E-017  1.284E-021  4.247E-013
   3.162E+015  2.928E-008  1.346E-013  1.043E-014  2.530E-015  1.495E-012  8.500E-002  2.246E-013  3.728E-017  1.702E-021  5.091E-013
   3.548E+015  3.347E-008  1.648E-013  1.311E-014  3.185E-015  1.839E-012  8.500E-002  2.789E-013  4.693E-017  2.260E-021  6.099E-013
   3.981E+015  3.820E-008  2.018E-013  1.648E-014  4.009E-015  2.262E-012  8.500E-002  3.463E-013  5.908E-017  3.005E-021  7.302E-013
   4.467E+015  4.355E-008  2.469E-013  2.072E-014  5.047E-015  2.780E-012  8.500E-002  4.297E-013  7.437E-017  4.003E-021  8.738E-013
   5.012E+015  4.962E-008  3.020E-013  2.602E-014  6.354E-015  3.415E-012  8.500E-002  5.329E-013  9.363E-017  5.360E-021  1.045E-012
   5.623E+015  5.663E-008  3.694E-013  3.268E-014  7.999E-015  4.191E-012  8.500E-002  6.606E-013  1.179E-016  7.277E-021  1.249E-012
   6.310E+015  6.511E-008  4.517E-013  4.099E-014  1.007E-014  5.140E-012  8.500E-002  8.185E-013  1.484E-016  1.024E-020  1.493E-012
   7.079E+015  7.643E-008  5.523E-013  5.132E-014  1.268E-014  6.298E-012  8.500E-002  1.014E-012  1.868E-016  1.556E-020  1.783E-012
   7.943E+015  9.403E-008  6.750E-013  6.404E-014  1.596E-014  7.711E-012  8.500E-002  1.254E-012  2.352E-016  2.695E-020  2.128E-012
   8.913E+015  1.259E-007  8.250E-013  7.934E-014  2.009E-014  9.432E-012  8.500E-002  1.552E-012  2.961E-016  5.491E-020  2.539E-012
   1.000E+016  1.890E-007  1.008E-012  9.707E-014  2.529E-014  1.153E-011  8.500E-002  1.918E-012  3.727E-016  1.292E-019  3.028E-012
   1.122E+016  3.171E-007  1.232E-012  1.162E-013  3.184E-014  1.407E-011  8.500E-002  2.370E-012  4.692E-016  3.349E-019  3.612E-012
   1.259E+016  5.729E-007  1.506E-012  1.346E-013  4.009E-014  1.716E-011  8.500E-002  2.926E-012  5.907E-016  9.050E-019  4.320E-012
   1.413E+016  1.064E-006  1.840E-012  1.488E-013  5.047E-014  2.092E-011  8.500E-002  3.611E-012  7.436E-016  2.429E-018  5.218E-012
   1.585E+016  1.962E-006  2.251E-012  1.552E-013  6.353E-014  2.547E-011  8.500E-002  4.453E-012  9.361E-016  6.298E-018  6.518E-012
   1.778E+016  3.524E-006  2.757E-012  1.522E-013  7.998E-014  3.102E-011  8.500E-002  5.486E-012  1.178E-015  1.583E-017  8.944E-012
   1.995E+016  6.091E-006  3.388E-012  1.407E-013  1.007E-013  3.782E-011  8.500E-002  6.759E-012  1.484E-015  3.983E-017  1.508E-011
   2.239E+016  1.007E-005  4.309E-012  1.236E-013  1.268E-013  4.790E-011  8.500E-002  8.498E-012  1.868E-015  1.070E-016  3.599E-011
   2.512E+016  1.585E-005  5.521E-012  1.049E-013  1.596E-013  6.081E-011  8.500E-002  1.067E-011  2.351E-015  2.988E-016  1.129E-010
   2.818E+016  2.361E-005  7.170E-012  8.773E-014  2.009E-013  7.740E-011  8.500E-002  1.334E-011  2.960E-015  8.126E-016  4.208E-010
   3.162E+016  3.323E-005  9.532E-012  7.347E-014  2.529E-013  9.867E-011  8.500E-002  1.661E-011  3.727E-015  2.104E-015  1.695E-009
   3.548E+016  4.431E-005  1.309E-011  6.183E-014  3.184E-013  1.251E-010  8.500E-002  2.071E-011  4.691E-015  5.292E-015  6.829E-009
   3.981E+016  5.643E-005  1.856E-011  5.221E-014  4.009E-013  1.548E-010  8.500E-002  2.616E-011  5.906E-015  1.266E-014  2.583E-008
   4.467E+016  6.963E-005  2.676E-011  4.428E-014  5.046E-013  1.829E-010  8.500E-002  3.394E-011  7.434E-015  2.716E-014  8.753E-008
   5.012E+016  8.475E-005  3.847E-011  3.786E-014  6.353E-013  2.026E-010  8.500E-002  4.550E-011  9.356E-015  5.080E-014  2.597E-007
   5.623E+016  1.033E-004  5.497E-011  3.279E-014  7.996E-013  2.095E-010  8.500E-002  6.261E-011  1.177E-014  8.392E-014  6.777E-007
   6.310E+016  1.268E-004  7.892E-011  2.894E-014  1.006E-012  2.053E-010  8.500E-002  8.700E-011  1.482E-014  1.247E-013  1.579E-006
   7.079E+016  1.552E-004  1.149E-010  2.619E-014  1.267E-012  1.971E-010  8.500E-002  1.199E-010  1.864E-014  1.690E-013  3.303E-006
   7.943E+016  1.863E-004  1.694E-010  2.426E-014  1.594E-012  1.892E-010  8.500E-002  1.625E-010  2.344E-014  2.111E-013  6.246E-006
   8.913E+016  2.158E-004  2.507E-010  2.284E-014  2.006E-012  1.827E-010  8.500E-002  2.174E-010  2.948E-014  2.443E-013  1.084E-005
   1.000E+017  2.397E-004  3.659E-010  2.172E-014  2.524E-012  1.780E-010  8.500E-002  2.878E-010  3.706E-014  2.622E-013  1.744E-005
   1.122E+017  2.561E-004  5.213E-010  2.077E-014  3.175E-012  1.753E-010  8.500E-002  3.779E-010  4.657E-014  2.608E-013  2.626E-005
   1.259E+017  2.658E-004  7.308E-010  1.994E-014  3.994E-012  1.749E-010  8.500E-002  4.944E-010  5.850E-014  2.409E-013  3.751E-005
   1.413E+017  2.714E-004  1.029E-009  1.921E-014  5.023E-012  1.767E-010  8.500E-002  6.471E-010  7.345E-014  2.068E-013  5.138E-005
   1.585E+017  2.753E-004  1.475E-009  1.858E-014  6.316E-012  1.809E-010  8.500E-002  8.495E-010  9.220E-014  1.642E-013  6.791E-005
   1.778E+017  2.787E-004  2.148E-009  1.804E-014  7.941E-012  1.886E-010  8.500E-002  1.118E-009  1.157E-013  1.202E-013  8.658E-005
   1.995E+017  2.819E-004  3.128E-009  1.759E-014  9.983E-012  2.013E-010  8.500E-002  1.474E-009  1.451E-013  8.300E-014  1.064E-004
   2.239E+017  2.850E-004  4.469E-009  1.719E-014  1.255E-011  2.191E-010  8.500E-002  1.945E-009  1.821E-013  5.828E-014  1.268E-004
   2.512E+017  2.879E-004  6.188E-009  1.683E-014  1.577E-011  2.406E-010  8.500E-002  2.574E-009  2.283E-013  4.548E-014  1.489E-004
   2.818E+017  2.908E-004  8.287E-009  1.649E-014  1.982E-011  2.631E-010  8.500E-002  3.438E-009  2.861E-013  4.049E-014  1.751E-004
   3.162E+017  2.937E-004  1.077E-008  1.616E-014  2.489E-011  2.842E-010  8.500E-002  4.670E-009  3.582E-013  3.969E-014  2.080E-004
   3.548E+017  2.967E-004  1.364E-008  1.585E-014  3.124E-011  3.023E-010  8.500E-002  6.510E-009  4.476E-013  4.116E-014  2.503E-004
   3.981E+017  2.997E-004  1.694E-008  1.555E-014  3.917E-011  3.165E-010  8.500E-002  9.439E-009  5.582E-013  4.409E-014  3.052E-004
   4.467E+017  3.030E-004  2.069E-008  1.528E-014  4.906E-011  3.265E-010  8.500E-002  1.452E-008  6.942E-013  4.811E-014  3.763E-004
   5.012E+017  3.064E-004  2.496E-008  1.504E-014  6.138E-011  3.371E-010  8.500E-002  2.426E-008  8.614E-013  3.981E-014  4.618E-004
   5.623E+017  3.100E-004  2.993E-008  1.488E-014  7.708E-011  4.021E-010  8.500E-002  3.929E-008  1.079E-012  8.033E-015  4.873E-004
   6.310E+017  3.134E-004  3.591E-008  1.473E-014  9.689E-011  5.046E-010  8.500E-002  5.625E-008  1.356E-012  5.224E-015  4.881E-004
   7.079E+017  3.169E-004  4.319E-008  1.458E-014  1.217E-010  6.333E-010  8.500E-002  7.507E-008  1.704E-012  3.550E-015  4.886E-004
   7.943E+017  3.203E-004  5.209E-008  1.444E-014  1.528E-010  7.944E-010  8.500E-002  9.610E-008  2.139E-012  2.386E-015  4.889E-004
   8.913E+017  3.238E-004  6.309E-008  1.429E-014  1.917E-010  9.959E-010  8.500E-002  1.197E-007  2.683E-012  1.587E-015  4.892E-004
   1.000E+018  3.273E-004  7.679E-008  1.416E-014  2.403E-010  1.247E-009  8.500E-002  1.462E-007  3.362E-012  1.045E-015  4.894E-004
   RADIUS      H           H+          H-          H2+         H3+         He          He+         HeH+        C-          C+          



   RADIUS      C           CH-         CH+         CH          CH2+        N+          CH2         N           CH3         NH          
   1.000E+014  0.000E+000  0.000E+000  0.000E+000  0.000E+000  0.000E+000  0.000E+000  0.000E+000  0.000E+000  0.000E+000  0.000E+000
   1.122E+014  2.745E-013  1.836E-021  1.019E-019  4.131E-018  7.728E-020  1.829E-020  2.033E-014  2.465E-013  1.212E-013  6.465E-016
   1.259E+014  3.113E-013  1.234E-020  7.836E-020  1.618E-017  5.983E-020  2.337E-020  5.238E-014  4.578E-013  3.053E-013  1.532E-015
   1.413E+014  3.531E-013  4.692E-020  6.046E-020  3.892E-017  4.670E-020  2.990E-020  8.627E-014  6.939E-013  5.069E-013  2.942E-015
   1.585E+014  4.008E-013  1.380E-019  5.136E-020  8.125E-017  4.024E-020  3.831E-020  1.170E-013  9.836E-013  6.826E-013  4.784E-015
   1.778E+014  4.554E-013  3.371E-019  5.076E-020  1.645E-016  4.026E-020  4.917E-020  1.467E-013  1.346E-012  8.295E-013  6.932E-015
   1.995E+014  5.180E-013  6.997E-019  5.719E-020  3.360E-016  4.568E-020  6.321E-020  1.779E-013  1.798E-012  9.564E-013  9.328E-015
   2.239E+014  5.902E-013  1.264E-018  6.949E-020  7.027E-016  5.565E-020  8.142E-020  2.119E-013  2.354E-012  1.074E-012  1.199E-014
   2.512E+014  6.737E-013  2.049E-018  8.724E-020  1.516E-015  6.992E-020  1.051E-019  2.494E-013  3.026E-012  1.191E-012  1.496E-014
   2.818E+014  7.705E-013  3.071E-018  1.108E-019  3.388E-015  8.882E-020  1.359E-019  2.899E-013  3.827E-012  1.316E-012  1.830E-014
   3.162E+014  8.830E-013  4.353E-018  1.413E-019  7.833E-015  1.132E-019  1.763E-019  3.313E-013  4.770E-012  1.455E-012  2.206E-014
   3.548E+014  1.014E-012  5.929E-018  1.804E-019  1.852E-014  1.445E-019  2.292E-019  3.673E-013  5.869E-012  1.613E-012  2.629E-014
   3.981E+014  1.168E-012  7.842E-018  2.304E-019  4.355E-014  1.846E-019  2.990E-019  3.839E-013  7.138E-012  1.797E-012  3.108E-014
   4.467E+014  1.348E-012  1.014E-017  2.943E-019  9.622E-014  2.358E-019  3.912E-019  3.610E-013  8.596E-012  2.014E-012  3.649E-014
   5.012E+014  1.560E-012  1.289E-017  3.762E-019  1.855E-013  3.013E-019  5.137E-019  2.922E-013  1.026E-011  2.277E-012  4.261E-014
   5.623E+014  1.810E-012  1.615E-017  4.809E-019  3.005E-013  3.852E-019  6.771E-019  2.108E-013  1.217E-011  2.600E-012  4.956E-014
   6.310E+014  2.107E-012  1.998E-017  6.148E-019  4.221E-013  4.925E-019  8.964E-019  1.579E-013  1.434E-011  2.992E-012  5.745E-014
   7.079E+014  2.460E-012  2.447E-017  7.863E-019  5.476E-013  6.298E-019  1.192E-018  1.407E-013  1.681E-011  3.452E-012  6.644E-014
   7.943E+014  2.880E-012  2.968E-017  1.006E-018  6.866E-013  8.056E-019  1.593E-018  1.465E-013  1.962E-011  3.984E-012  7.671E-014
   8.913E+014  3.383E-012  3.570E-017  1.287E-018  8.507E-013  1.031E-018  2.142E-018  1.644E-013  2.282E-011  4.593E-012  8.847E-014
   1.000E+015  3.987E-012  4.263E-017  1.647E-018  1.050E-012  1.319E-018  2.897E-018  1.890E-013  2.647E-011  5.292E-012  1.020E-013
   1.122E+015  4.712E-012  5.056E-017  2.108E-018  1.296E-012  1.688E-018  3.943E-018  2.188E-013  3.062E-011  6.098E-012  1.176E-013
   1.259E+015  5.588E-012  5.962E-017  2.698E-018  1.600E-012  2.161E-018  5.408E-018  2.537E-013  3.535E-011  7.034E-012  1.356E-013
   1.413E+015  6.647E-012  6.994E-017  3.455E-018  1.978E-012  2.766E-018  7.475E-018  2.942E-013  4.075E-011  8.123E-012  1.566E-013
   1.585E+015  7.931E-012  8.164E-017  4.424E-018  2.448E-012  3.541E-018  1.042E-017  3.412E-013  4.689E-011  9.400E-012  1.810E-013
   1.778E+015  9.491E-012  9.490E-017  5.665E-018  3.036E-012  4.534E-018  1.467E-017  3.958E-013  5.390E-011  1.090E-011  2.096E-013
   1.995E+015  1.139E-011  1.099E-016  7.256E-018  3.772E-012  5.806E-018  2.087E-017  4.592E-013  6.189E-011  1.268E-011  2.433E-013
   2.239E+015  1.371E-011  1.268E-016  9.294E-018  4.698E-012  7.435E-018  3.003E-017  5.328E-013  7.100E-011  1.479E-011  2.831E-013
   2.512E+015  1.654E-011  1.459E-016  1.191E-017  5.867E-012  9.520E-018  4.375E-017  6.183E-013  8.140E-011  1.731E-011  3.302E-013
   2.818E+015  2.001E-011  1.673E-016  1.525E-017  7.348E-012  1.219E-017  6.462E-017  7.177E-013  9.326E-011  2.032E-011  3.860E-013
   3.162E+015  2.425E-011  1.914E-016  1.954E-017  9.232E-012  1.561E-017  9.685E-017  8.334E-013  1.068E-010  2.393E-011  4.524E-013
   3.548E+015  2.946E-011  2.184E-016  2.503E-017  1.164E-011  1.998E-017  1.475E-016  9.681E-013  1.222E-010  2.827E-011  5.313E-013
   3.981E+015  3.586E-011  2.487E-016  3.207E-017  1.472E-011  2.558E-017  2.288E-016  1.126E-012  1.399E-010  3.348E-011  6.253E-013
   4.467E+015  4.377E-011  2.826E-016  4.109E-017  1.869E-011  3.274E-017  3.613E-016  1.318E-012  1.600E-010  3.976E-011  7.379E-013
   5.012E+015  5.373E-011  3.205E-016  5.263E-017  2.384E-011  4.189E-017  5.827E-016  1.572E-012  1.830E-010  4.735E-011  8.754E-013
   5.623E+015  6.695E-011  3.633E-016  6.741E-017  3.058E-011  5.359E-017  9.605E-016  1.997E-012  2.097E-010  5.674E-011  1.054E-012
   6.310E+015  8.660E-011  4.126E-016  8.634E-017  3.965E-011  6.855E-017  1.620E-015  2.938E-012  2.418E-010  6.906E-011  1.319E-012
   7.079E+015  1.212E-010  4.732E-016  1.106E-016  5.252E-011  8.768E-017  2.797E-015  5.404E-012  2.856E-010  8.759E-011  1.790E-012
   7.943E+015  1.926E-010  5.569E-016  1.416E-016  7.259E-011  1.121E-016  4.941E-015  1.204E-011  3.616E-010  1.215E-010  2.767E-012
   8.913E+015  3.527E-010  6.918E-016  1.813E-016  1.080E-010  1.436E-016  8.911E-015  2.908E-011  5.321E-010  1.947E-010  4.939E-012
   1.000E+016  7.154E-010  9.337E-016  2.321E-016  1.777E-010  1.846E-016  1.631E-014  7.006E-011  9.663E-010  3.640E-010  9.759E-012
   1.122E+016  1.515E-009  1.369E-015  2.979E-016  3.246E-010  2.406E-016  2.998E-014  1.622E-010  2.081E-009  7.493E-010  2.009E-011
   1.259E+016  3.205E-009  2.071E-015  3.862E-016  6.419E-010  3.280E-016  5.428E-014  3.572E-010  4.810E-009  1.574E-009  4.124E-011
   1.413E+016  6.640E-009  2.962E-015  5.207E-016  1.325E-009  5.032E-016  9.451E-014  7.488E-010  1.109E-008  3.209E-009  8.261E-011
   1.585E+016  1.341E-008  3.653E-015  7.935E-016  2.772E-009  9.650E-016  1.547E-013  1.502E-009  2.467E-008  6.209E-009  1.605E-010
   1.778E+016  2.658E-008  3.544E-015  1.573E-015  5.772E-009  2.395E-015  2.357E-013  2.907E-009  5.249E-008  1.133E-008  3.029E-010
   1.995E+016  5.244E-008  2.415E-015  4.269E-015  1.185E-008  7.049E-015  3.385E-013  5.477E-009  1.070E-007  1.947E-008  5.580E-010
   2.239E+016  1.054E-007  1.008E-015  1.383E-014  2.364E-008  2.283E-014  4.502E-013  1.075E-008  2.103E-007  3.148E-008  1.007E-009
   2.512E+016  2.206E-007  2.471E-016  4.660E-014  4.581E-008  7.475E-014  6.161E-013  2.089E-008  4.014E-007  4.805E-008  1.766E-009
   2.818E+016  4.830E-007  5.204E-017  1.513E-013  8.533E-008  2.370E-013  8.690E-013  3.969E-008  7.484E-007  6.949E-008  2.954E-009
   3.162E+016  1.080E-006  1.379E-017  4.551E-013  1.501E-007  7.027E-013  1.253E-012  7.227E-008  1.366E-006  9.497E-008  4.592E-009
   3.548E+016  2.351E-006  4.776E-018  1.250E-012  2.472E-007  1.892E-012  1.818E-012  1.211E-007  2.426E-006  1.214E-007  6.453E-009
   3.981E+016  4.749E-006  2.200E-018  3.152E-012  3.824E-007  4.534E-012  2.607E-012  1.786E-007  4.150E-006  1.411E-007  7.938E-009
   4.467E+016  8.695E-006  1.081E-018  7.394E-012  5.612E-007  9.730E-012  3.643E-012  2.277E-007  6.758E-006  1.427E-007  8.221E-009
   5.012E+016  1.443E-005  5.013E-019  1.634E-011  7.868E-007  1.936E-011  4.869E-012  2.615E-007  1.041E-005  1.204E-007  6.844E-009
   5.623E+016  2.191E-005  2.488E-019  3.377E-011  1.042E-006  3.659E-011  6.132E-012  2.892E-007  1.511E-005  8.296E-008  4.346E-009
   6.310E+016  3.079E-005  1.490E-019  6.331E-011  1.264E-006  6.419E-011  7.184E-012  3.112E-007  2.070E-005  4.750E-008  1.994E-009
   7.079E+016  4.034E-005  9.976E-020  1.041E-010  1.360E-006  9.982E-011  7.748E-012  3.070E-007  2.688E-005  2.458E-008  6.382E-010
   7.943E+016  4.940E-005  6.524E-020  1.473E-010  1.279E-006  1.343E-010  7.706E-012  2.677E-007  3.325E-005  1.292E-008  1.482E-010
   8.913E+016  5.651E-005  3.845E-020  1.756E-010  1.035E-006  1.537E-010  7.173E-012  2.018E-007  3.942E-005  6.972E-009  3.282E-011
   1.000E+017  6.026E-005  1.991E-020  1.711E-010  6.993E-007  1.463E-010  6.381E-012  1.271E-007  4.505E-005  3.451E-009  1.051E-011
   1.122E+017  5.986E-005  9.088E-021  1.352E-010  3.924E-007  1.185E-010  5.597E-012  6.717E-008  4.987E-005  1.449E-009  4.431E-012
   1.259E+017  5.544E-005  3.726E-021  9.319E-011  1.964E-007  9.165E-011  5.027E-012  3.306E-008  5.372E-005  5.374E-010  2.179E-012
   1.413E+017  4.789E-005  1.511E-021  6.726E-011  1.048E-007  7.982E-011  4.764E-012  1.847E-008  5.656E-005  2.092E-010  1.334E-012
