  ** CALCULATED FRACTIONAL ABUNDANCES (/H2) ** 


   RADIUS      H           H+          H-          H2+         H3+         He          He+         HeH+        C-          C+          
   1.000E+014  0.000E+000  0.000E+000  0.000E+000  0.000E+000  0.000E+000  8.500E-002  0.000E+000  0.000E+000  0.000E+000  0.000E+000
   1.072E+014  2.256E-010  3.046E-015  5.864E-017  2.542E-017  2.568E-014  8.500E-002  2.965E-015  3.746E-019  3.534E-025  8.952E-016
   1.148E+014  4.476E-010  3.481E-015  6.769E-017  2.919E-017  2.942E-014  8.500E-002  3.401E-015  4.301E-019  1.011E-024  1.118E-015
   1.230E+014  6.678E-010  3.977E-015  7.815E-017  3.351E-017  3.369E-014  8.500E-002  3.901E-015  4.938E-019  2.157E-024  1.400E-015
   1.318E+014  8.891E-010  4.545E-015  9.021E-017  3.848E-017  3.859E-014  8.500E-002  4.475E-015  5.669E-019  4.078E-024  1.756E-015
   1.413E+014  1.113E-009  5.194E-015  1.041E-016  4.418E-017  4.420E-014  8.500E-002  5.133E-015  6.509E-019  7.217E-024  2.206E-015
   1.514E+014  1.342E-009  5.935E-015  1.202E-016  5.072E-017  5.063E-014  8.500E-002  5.888E-015  7.473E-019  1.222E-023  2.778E-015
   1.622E+014  1.577E-009  6.782E-015  1.388E-016  5.824E-017  5.798E-014  8.500E-002  6.753E-015  8.581E-019  2.005E-023  3.504E-015
   1.738E+014  1.819E-009  7.749E-015  1.603E-016  6.686E-017  6.640E-014  8.500E-002  7.746E-015  9.852E-019  3.201E-023  4.427E-015
   1.862E+014  2.067E-009  8.854E-015  1.851E-016  7.677E-017  7.605E-014  8.500E-002  8.884E-015  1.131E-018  4.989E-023  5.604E-015
   1.995E+014  2.322E-009  1.012E-014  2.137E-016  8.814E-017  8.709E-014  8.500E-002  1.019E-014  1.299E-018  7.599E-023  7.105E-015
   2.138E+014  2.584E-009  1.156E-014  2.468E-016  1.012E-016  9.974E-014  8.500E-002  1.169E-014  1.491E-018  1.131E-022  9.021E-015
   2.291E+014  2.853E-009  1.320E-014  2.851E-016  1.162E-016  1.142E-013  8.500E-002  1.340E-014  1.712E-018  1.642E-022  1.147E-014
   2.455E+014  3.129E-009  1.508E-014  3.292E-016  1.334E-016  1.308E-013  8.500E-002  1.537E-014  1.966E-018  2.327E-022  1.460E-014
   2.630E+014  3.412E-009  1.723E-014  3.802E-016  1.532E-016  1.498E-013  8.500E-002  1.763E-014  2.257E-018  3.218E-022  1.859E-014
   2.818E+014  3.705E-009  1.969E-014  4.391E-016  1.759E-016  1.715E-013  8.500E-002  2.022E-014  2.591E-018  4.344E-022  2.370E-014
   3.020E+014  4.008E-009  2.249E-014  5.072E-016  2.019E-016  1.964E-013  8.500E-002  2.319E-014  2.975E-018  5.734E-022  3.020E-014
   3.236E+014  4.323E-009  2.569E-014  5.859E-016  2.318E-016  2.248E-013  8.500E-002  2.659E-014  3.416E-018  7.414E-022  3.849E-014
   3.467E+014  4.654E-009  2.934E-014  6.768E-016  2.662E-016  2.574E-013  8.500E-002  3.050E-014  3.922E-018  9.416E-022  4.901E-014
   3.715E+014  5.002E-009  3.351E-014  7.818E-016  3.056E-016  2.947E-013  8.500E-002  3.497E-014  4.503E-018  1.178E-021  6.233E-014
   3.981E+014  5.370E-009  3.828E-014  9.032E-016  3.509E-016  3.375E-013  8.500E-002  4.011E-014  5.170E-018  1.454E-021  7.912E-014
   4.266E+014  5.761E-009  4.372E-014  1.043E-015  4.029E-016  3.864E-013  8.500E-002  4.599E-014  5.936E-018  1.777E-021  1.002E-013
   4.571E+014  6.177E-009  4.993E-014  1.205E-015  4.626E-016  4.423E-013  8.500E-002  5.274E-014  6.816E-018  2.154E-021  1.265E-013
   4.898E+014  6.620E-009  5.702E-014  1.393E-015  5.311E-016  5.064E-013  8.500E-002  6.048E-014  7.826E-018  2.594E-021  1.590E-013
   5.248E+014  7.095E-009  6.512E-014  1.609E-015  6.098E-016  5.797E-013  8.500E-002  6.935E-014  8.985E-018  3.109E-021  1.991E-013
   5.623E+014  7.604E-009  7.436E-014  1.859E-015  7.001E-016  6.636E-013  8.500E-002  7.952E-014  1.032E-017  3.714E-021  2.479E-013
   6.026E+014  8.155E-009  8.492E-014  2.148E-015  8.039E-016  7.597E-013  8.500E-002  9.118E-014  1.184E-017  4.426E-021  3.070E-013
   6.457E+014  8.759E-009  9.696E-014  2.481E-015  9.230E-016  8.696E-013  8.500E-002  1.046E-013  1.360E-017  5.268E-021  3.777E-013
   6.918E+014  9.437E-009  1.107E-013  2.867E-015  1.060E-015  9.954E-013  8.500E-002  1.199E-013  1.561E-017  6.272E-021  4.617E-013
   7.413E+014  1.023E-008  1.264E-013  3.312E-015  1.217E-015  1.139E-012  8.500E-002  1.374E-013  1.793E-017  7.482E-021  5.605E-013
   7.943E+014  1.121E-008  1.443E-013  3.826E-015  1.397E-015  1.304E-012  8.500E-002  1.576E-013  2.058E-017  8.969E-021  6.757E-013
   8.511E+014  1.249E-008  1.648E-013  4.420E-015  1.604E-015  1.493E-012  8.500E-002  1.807E-013  2.363E-017  1.085E-020  8.091E-013
   9.120E+014  1.429E-008  1.881E-013  5.105E-015  1.842E-015  1.708E-012  8.500E-002  2.072E-013  2.713E-017  1.331E-020  9.623E-013
   9.772E+014  1.693E-008  2.148E-013  5.895E-015  2.114E-015  1.955E-012  8.500E-002  2.375E-013  3.115E-017  1.669E-020  1.137E-012
   1.047E+015  2.096E-008  2.452E-013  6.804E-015  2.428E-015  2.237E-012  8.500E-002  2.723E-013  3.577E-017  2.157E-020  1.337E-012
   1.122E+015  2.721E-008  2.798E-013  7.850E-015  2.787E-015  2.561E-012  8.500E-002  3.121E-013  4.107E-017  2.902E-020  1.562E-012
   1.202E+015  3.690E-008  3.194E-013  9.051E-015  3.200E-015  2.930E-012  8.500E-002  3.578E-013  4.715E-017  4.095E-020  1.817E-012
   1.288E+015  5.185E-008  3.646E-013  1.042E-014  3.674E-015  3.353E-012  8.500E-002  4.102E-013  5.414E-017  6.097E-020  2.105E-012
   1.380E+015  7.464E-008  4.161E-013  1.199E-014  4.219E-015  3.837E-012  8.500E-002  4.702E-013  6.216E-017  9.586E-020  2.430E-012
   1.479E+015  1.089E-007  4.749E-013  1.376E-014  4.844E-015  4.390E-012  8.500E-002  5.390E-013  7.137E-017  1.586E-019  2.797E-012
   1.585E+015  1.596E-007  5.420E-013  1.575E-014  5.561E-015  5.023E-012  8.500E-002  6.179E-013  8.194E-017  2.736E-019  3.212E-012
   1.698E+015  2.333E-007  6.185E-013  1.797E-014  6.385E-015  5.747E-012  8.500E-002  7.082E-013  9.408E-017  4.867E-019  3.684E-012
   1.820E+015  3.390E-007  7.058E-013  2.040E-014  7.331E-015  6.575E-012  8.500E-002  8.118E-013  1.080E-016  8.805E-019  4.226E-012
   1.950E+015  4.881E-007  8.055E-013  2.303E-014  8.417E-015  7.521E-012  8.500E-002  9.305E-013  1.240E-016  1.599E-018  4.856E-012
   2.089E+015  6.953E-007  9.192E-013  2.580E-014  9.664E-015  8.603E-012  8.500E-002  1.066E-012  1.424E-016  2.882E-018  5.609E-012
   2.239E+015  9.792E-007  1.049E-012  2.866E-014  1.110E-014  9.840E-012  8.500E-002  1.222E-012  1.635E-016  5.110E-018  6.541E-012
   2.399E+015  1.363E-006  1.197E-012  3.151E-014  1.274E-014  1.125E-011  8.500E-002  1.401E-012  1.877E-016  8.866E-018  7.754E-012
   2.570E+015  1.874E-006  1.367E-012  3.423E-014  1.463E-014  1.287E-011  8.500E-002  1.606E-012  2.155E-016  1.501E-017  9.430E-012
   2.754E+015  2.548E-006  1.561E-012  3.670E-014  1.679E-014  1.472E-011  8.500E-002  1.840E-012  2.475E-016  2.476E-017  1.189E-011
   2.951E+015  3.424E-006  1.782E-012  3.880E-014  1.928E-014  1.683E-011  8.500E-002  2.109E-012  2.841E-016  3.987E-017  1.572E-011
   3.162E+015  4.550E-006  2.037E-012  4.044E-014  2.214E-014  1.924E-011  8.500E-002  2.417E-012  3.262E-016  6.274E-017  2.190E-011
   3.388E+015  5.980E-006  2.329E-012  4.158E-014  2.542E-014  2.200E-011  8.500E-002  2.771E-012  3.745E-016  9.675E-017  3.219E-011
   3.631E+015  7.778E-006  2.665E-012  4.219E-014  2.919E-014  2.515E-011  8.500E-002  3.176E-012  4.300E-016  1.466E-016  4.956E-011
   3.890E+015  1.001E-005  3.054E-012  4.234E-014  3.351E-014  2.876E-011  8.500E-002  3.640E-012  4.937E-016  2.190E-016  7.910E-011
   4.169E+015  1.277E-005  3.504E-012  4.211E-014  3.847E-014  3.287E-011  8.500E-002  4.173E-012  5.669E-016  3.237E-016  1.295E-010
   4.467E+015  1.613E-005  4.029E-012  4.161E-014  4.417E-014  3.758E-011  8.500E-002  4.784E-012  6.509E-016  4.748E-016  2.156E-010
   4.786E+015  2.018E-005  4.643E-012  4.096E-014  5.072E-014  4.296E-011  8.500E-002  5.486E-012  7.473E-016  6.941E-016  3.626E-010
   5.129E+015  2.502E-005  5.367E-012  4.029E-014  5.823E-014  4.910E-011  8.500E-002  6.291E-012  8.580E-016  1.014E-015  6.137E-010
   5.495E+015  3.076E-005  6.225E-012  3.972E-014  6.686E-014  5.610E-011  8.500E-002  7.217E-012  9.851E-016  1.486E-015  1.044E-009
   5.888E+015  3.747E-005  7.250E-012  3.937E-014  7.676E-014  6.408E-011  8.500E-002  8.282E-012  1.131E-015  2.186E-015  1.781E-009
   6.310E+015  4.525E-005  8.484E-012  3.932E-014  8.814E-014  7.314E-011  8.500E-002  9.509E-012  1.299E-015  3.227E-015  3.047E-009
   6.761E+015  5.417E-005  9.981E-012  3.968E-014  1.012E-013  8.341E-011  8.500E-002  1.092E-011  1.491E-015  4.772E-015  5.226E-009
   7.244E+015  6.427E-005  1.181E-011  4.050E-014  1.162E-013  9.499E-011  8.500E-002  1.256E-011  1.712E-015  7.043E-015  8.980E-009
   7.762E+015  7.556E-005  1.406E-011  4.178E-014  1.334E-013  1.080E-010  8.500E-002  1.444E-011  1.965E-015  1.033E-014  1.544E-008
   8.318E+015  8.801E-005  1.685E-011  4.351E-014  1.532E-013  1.225E-010  8.500E-002  1.663E-011  2.257E-015  1.501E-014  2.653E-008
   8.913E+015  1.015E-004  2.031E-011  4.564E-014  1.758E-013  1.386E-010  8.500E-002  1.916E-011  2.591E-015  2.153E-014  4.546E-008
   9.550E+015  1.160E-004  2.463E-011  4.810E-014  2.019E-013  1.563E-010  8.500E-002  2.211E-011  2.975E-015  3.042E-014  7.755E-008
   1.023E+016  1.313E-004  3.000E-011  5.084E-014  2.318E-013  1.755E-010  8.500E-002  2.553E-011  3.415E-015  4.231E-014  1.314E-007
   1.096E+016  1.471E-004  3.667E-011  5.383E-014  2.661E-013  1.960E-010  8.500E-002  2.952E-011  3.921E-015  5.788E-014  2.204E-007
   1.175E+016  1.633E-004  4.495E-011  5.706E-014  3.056E-013  2.173E-010  8.500E-002  3.416E-011  4.502E-015  7.788E-014  3.653E-007
   1.259E+016  1.796E-004  5.518E-011  6.060E-014  3.508E-013  2.388E-010  8.500E-002  3.956E-011  5.168E-015  1.030E-013  5.959E-007
   1.349E+016  1.958E-004  6.777E-011  6.453E-014  4.028E-013  2.595E-010  8.500E-002  4.587E-011  5.934E-015  1.338E-013  9.545E-007
   1.445E+016  2.119E-004  8.327E-011  6.891E-014  4.624E-013  2.782E-010  8.500E-002  5.322E-011  6.812E-015  1.707E-013  1.497E-006
   1.549E+016  2.279E-004  1.024E-010  7.381E-014  5.309E-013  2.938E-010  8.500E-002  6.179E-011  7.821E-015  2.132E-013  2.294E-006
   1.660E+016  2.437E-004  1.260E-010  7.920E-014  6.096E-013  3.054E-010  8.500E-002  7.179E-011  8.978E-015  2.603E-013  3.430E-006
   1.778E+016  2.595E-004  1.555E-010  8.500E-014  6.998E-013  3.128E-010  8.500E-002  8.345E-011  1.031E-014  3.102E-013  4.999E-006
   1.905E+016  2.753E-004  1.926E-010  9.099E-014  8.034E-013  3.162E-010  8.500E-002  9.705E-011  1.183E-014  3.599E-013  7.101E-006
   2.042E+016  2.913E-004  2.395E-010  9.691E-014  9.224E-013  3.166E-010  8.500E-002  1.129E-010  1.358E-014  4.062E-013  9.833E-006
   2.188E+016  3.073E-004  2.991E-010  1.025E-013  1.059E-012  3.152E-010  8.500E-002  1.313E-010  1.559E-014  4.458E-013  1.328E-005
   2.344E+016  3.234E-004  3.746E-010  1.073E-013  1.216E-012  3.132E-010  8.500E-002  1.526E-010  1.790E-014  4.758E-013  1.752E-005
   2.512E+016  3.391E-004  4.698E-010  1.113E-013  1.395E-012  3.115E-010  8.500E-002  1.774E-010  2.054E-014  4.939E-013  2.257E-005
   2.692E+016  3.544E-004  5.882E-010  1.140E-013  1.602E-012  3.110E-010  8.500E-002  2.060E-010  2.358E-014  4.990E-013  2.843E-005
   2.884E+016  3.687E-004  7.329E-010  1.153E-013  1.839E-012  3.121E-010  8.500E-002  2.391E-010  2.706E-014  4.909E-013  3.504E-005
   3.090E+016  3.818E-004  9.064E-010  1.153E-013  2.111E-012  3.152E-010  8.500E-002  2.773E-010  3.106E-014  4.705E-013  4.230E-005
   3.311E+016  3.935E-004  1.109E-009  1.137E-013  2.423E-012  3.208E-010  8.500E-002  3.215E-010  3.564E-014  4.398E-013  5.006E-005
   3.548E+016  4.036E-004  1.341E-009  1.108E-013  2.782E-012  3.291E-010  8.500E-002  3.725E-010  4.091E-014  4.015E-013  5.817E-005
   3.802E+016  4.120E-004  1.599E-009  1.067E-013  3.193E-012  3.404E-010  8.500E-002  4.314E-010  4.695E-014  3.589E-013  6.644E-005
   4.074E+016  4.188E-004  1.880E-009  1.016E-013  3.665E-012  3.549E-010  8.500E-002  4.994E-010  5.388E-014  3.152E-013  7.474E-005
   4.365E+016  4.240E-004  2.178E-009  9.577E-014  4.207E-012  3.728E-010  8.500E-002  5.780E-010  6.183E-014  2.736E-013  8.298E-005
   4.677E+016  4.280E-004  2.492E-009  8.961E-014  4.829E-012  3.941E-010  8.500E-002  6.690E-010  7.096E-014  2.363E-013  9.111E-005
   5.012E+016  4.308E-004  2.818E-009  8.334E-014  5.543E-012  4.188E-010  8.500E-002  7.744E-010  8.143E-014  2.048E-013  9.918E-005
   5.370E+016  4.329E-004  3.157E-009  7.723E-014  6.363E-012  4.465E-010  8.500E-002  8.970E-010  9.345E-014  1.798E-013  1.073E-004
   5.754E+016  4.344E-004  3.511E-009  7.144E-014  7.303E-012  4.769E-010  8.500E-002  1.040E-009  1.072E-013  1.609E-013  1.157E-004
   6.166E+016  4.355E-004  3.884E-009  6.610E-014  8.382E-012  5.094E-010  8.500E-002  1.207E-009  1.230E-013  1.475E-013  1.246E-004
   6.607E+016  4.364E-004  4.281E-009  6.127E-014  9.621E-012  5.433E-010  8.500E-002  1.404E-009  1.412E-013  1.387E-013  1.343E-004
   7.079E+016  4.371E-004  4.709E-009  5.697E-014  1.104E-011  5.777E-010  8.500E-002  1.635E-009  1.620E-013  1.334E-013  1.451E-004
   7.586E+016  4.377E-004  5.172E-009  5.318E-014  1.267E-011  6.120E-010  8.500E-002  1.910E-009  1.858E-013  1.307E-013  1.573E-004
   8.128E+016  4.383E-004  5.677E-009  4.986E-014  1.454E-011  6.452E-010  8.500E-002  2.238E-009  2.131E-013  1.301E-013  1.712E-004
   8.710E+016  4.389E-004  6.228E-009  4.696E-014  1.669E-011  6.768E-010  8.500E-002  2.632E-009  2.444E-013  1.310E-013  1.873E-004
   9.333E+016  4.395E-004  6.831E-009  4.444E-014  1.914E-011  7.060E-010  8.500E-002  3.110E-009  2.803E-013  1.331E-013  2.059E-004
   1.000E+017  4.401E-004  7.492E-009  4.225E-014  2.196E-011  7.323E-010  8.500E-002  3.693E-009  3.213E-013  1.362E-013  2.275E-004
   1.072E+017  4.407E-004  8.217E-009  4.034E-014  2.519E-011  7.555E-010  8.500E-002  4.414E-009  3.683E-013  1.402E-013  2.526E-004
   1.148E+017  4.414E-004  9.013E-009  3.867E-014  2.889E-011  7.754E-010  8.500E-002  5.316E-009  4.220E-013  1.448E-013  2.816E-004
   1.230E+017  4.420E-004  9.888E-009  3.720E-014  3.313E-011  7.919E-010  8.500E-002  6.458E-009  4.834E-013  1.494E-013  3.152E-004
   1.318E+017  4.427E-004  1.085E-008  3.588E-014  3.798E-011  8.060E-010  8.500E-002  7.925E-009  5.535E-013  1.517E-013  3.536E-004
   1.413E+017  4.434E-004  1.192E-008  3.461E-014  4.354E-011  8.209E-010  8.500E-002  9.822E-009  6.336E-013  1.445E-013  3.958E-004
   1.514E+017  4.441E-004  1.310E-008  3.318E-014  4.991E-011  8.459E-010  8.500E-002  1.224E-008  7.252E-013  1.133E-013  4.369E-004
   1.622E+017  4.448E-004  1.441E-008  3.135E-014  5.721E-011  8.971E-010  8.500E-002  1.518E-008  8.304E-013  6.116E-014  4.673E-004
   1.738E+017  4.455E-004  1.587E-008  2.918E-014  6.561E-011  9.834E-010  8.500E-002  1.853E-008  9.516E-013  2.225E-014  4.826E-004
   1.862E+017  4.463E-004  1.750E-008  2.700E-014  7.524E-011  1.100E-009  8.500E-002  2.218E-008  1.091E-012  6.679E-015  4.879E-004
   1.995E+017  4.470E-004  1.931E-008  2.503E-014  8.628E-011  1.240E-009  8.500E-002  2.611E-008  1.250E-012  2.351E-015  4.893E-004
   2.138E+017  4.478E-004  2.132E-008  2.331E-014  9.893E-011  1.400E-009  8.500E-002  3.032E-008  1.433E-012  1.243E-015  4.896E-004
   2.291E+017  4.485E-004  2.357E-008  2.184E-014  1.134E-010  1.582E-009  8.500E-002  3.483E-008  1.643E-012  8.592E-016  4.897E-004
   2.455E+017  4.493E-004  2.607E-008  2.057E-014  1.300E-010  1.787E-009  8.500E-002  3.967E-008  1.882E-012  6.451E-016  4.898E-004
   2.630E+017  4.501E-004  2.887E-008  1.948E-014  1.489E-010  2.017E-009  8.500E-002  4.487E-008  2.156E-012  4.929E-016  4.898E-004
   2.818E+017  4.509E-004  3.200E-008  1.855E-014  1.706E-010  2.278E-009  8.500E-002  5.044E-008  2.469E-012  3.782E-016  4.899E-004
   3.020E+017  4.517E-004  3.553E-008  1.775E-014  1.954E-010  2.571E-009  8.500E-002  5.642E-008  2.827E-012  2.907E-016  4.899E-004
   3.236E+017  4.526E-004  3.950E-008  1.707E-014  2.237E-010  2.900E-009  8.500E-002  6.285E-008  3.235E-012  2.236E-016  4.899E-004
   3.467E+017  4.534E-004  4.399E-008  1.648E-014  2.560E-010  3.271E-009  8.500E-002  6.975E-008  3.701E-012  1.721E-016  4.899E-004
   3.715E+017  4.543E-004  4.908E-008  1.598E-014  2.928E-010  3.687E-009  8.500E-002  7.716E-008  4.232E-012  1.326E-016  4.900E-004
   3.981E+017  4.553E-004  5.489E-008  1.555E-014  3.348E-010  4.154E-009  8.500E-002  8.512E-008  4.836E-012  1.022E-016  4.900E-004
   4.266E+017  4.562E-004  6.154E-008  1.517E-014  3.825E-010  4.677E-009  8.500E-002  9.368E-008  5.523E-012  7.884E-017  4.900E-004
   4.571E+017  4.573E-004  6.917E-008  1.486E-014  4.367E-010  5.263E-009  8.500E-002  1.029E-007  6.304E-012  6.082E-017  4.900E-004
   4.898E+017  4.583E-004  7.797E-008  1.458E-014  4.983E-010  5.917E-009  8.500E-002  1.127E-007  7.190E-012  4.694E-017  4.900E-004
   5.248E+017  4.594E-004  8.815E-008  1.435E-014  5.680E-010  6.647E-009  8.500E-002  1.233E-007  8.193E-012  3.624E-017  4.900E-004
   5.623E+017  4.606E-004  9.996E-008  1.415E-014  6.469E-010  7.459E-009  8.500E-002  1.347E-007  9.327E-012  2.799E-017  4.900E-004
   6.026E+017  4.618E-004  1.137E-007  1.398E-014  7.359E-010  8.362E-009  8.500E-002  1.469E-007  1.061E-011  2.162E-017  4.900E-004
   6.457E+017  4.630E-004  1.298E-007  1.383E-014  8.361E-010  9.362E-009  8.500E-002  1.601E-007  1.205E-011  1.670E-017  4.900E-004
   6.918E+017  4.644E-004  1.486E-007  1.370E-014  9.486E-010  1.047E-008  8.500E-002  1.741E-007  1.366E-011  1.291E-017  4.900E-004
   7.413E+017  4.657E-004  1.707E-007  1.359E-014  1.075E-009  1.169E-008  8.500E-002  1.893E-007  1.547E-011  9.978E-018  4.900E-004
   7.943E+017  4.672E-004  1.966E-007  1.349E-014  1.215E-009  1.302E-008  8.500E-002  2.055E-007  1.749E-011  7.714E-018  4.901E-004
   8.511E+017  4.688E-004  2.272E-007  1.341E-014  1.372E-009  1.448E-008  8.500E-002  2.229E-007  1.973E-011  5.966E-018  4.901E-004
   9.120E+017  4.704E-004  2.632E-007  1.334E-014  1.545E-009  1.607E-008  8.500E-002  2.417E-007  2.221E-011  4.614E-018  4.901E-004
   9.772E+017  4.721E-004  3.056E-007  1.328E-014  1.736E-009  1.779E-008  8.500E-002  2.617E-007  2.494E-011  3.570E-018  4.901E-004
   1.047E+018  4.739E-004  3.555E-007  1.322E-014  1.945E-009  1.965E-008  8.500E-002  2.833E-007  2.794E-011  2.762E-018  4.901E-004
   RADIUS      H           H+          H-          H2+         H3+         He          He+         HeH+        C-          C+          



   RADIUS      C           CH-         CH+         CH          CH2+        N+          CH2         N           CH3         NH          
   1.000E+014  0.000E+000  0.000E+000  0.000E+000  0.000E+000  0.000E+000  0.000E+000  0.000E+000  0.000E+000  0.000E+000  0.000E+000
   1.072E+014  2.816E-013  1.261E-023  3.198E-018  4.225E-016  2.405E-018  1.333E-019  7.293E-014  5.426E-014  3.195E-013  1.299E-015
   1.148E+014  3.874E-013  5.861E-023  3.655E-018  4.824E-016  2.748E-018  1.533E-019  9.113E-014  8.337E-014  4.265E-013  1.637E-015
   1.230E+014  5.345E-013  1.530E-022  4.175E-018  5.498E-016  3.140E-018  1.764E-019  1.139E-013  1.252E-013  5.605E-013  2.005E-015
   1.318E+014  7.387E-013  3.161E-022  4.767E-018  6.248E-016  3.584E-018  2.029E-019  1.423E-013  1.845E-013  7.288E-013  2.398E-015
   1.413E+014  1.022E-012  5.756E-022  5.438E-018  7.070E-016  4.089E-018  2.335E-019  1.775E-013  2.662E-013  9.400E-013  2.791E-015
   1.514E+014  1.411E-012  9.688E-022  6.200E-018  7.952E-016  4.662E-018  2.687E-019  2.206E-013  3.744E-013  1.203E-012  3.153E-015
   1.622E+014  1.944E-012  1.546E-021  7.061E-018  8.872E-016  5.310E-018  3.092E-019  2.726E-013  5.131E-013  1.528E-012  3.452E-015
   1.738E+014  2.665E-012  2.376E-021  8.035E-018  9.797E-016  6.042E-018  3.559E-019  3.344E-013  6.848E-013  1.924E-012  3.660E-015
   1.862E+014  3.625E-012  3.550E-021  9.131E-018  1.068E-015  6.867E-018  4.096E-019  4.059E-013  8.911E-013  2.394E-012  3.772E-015
